"Big Lin Disp at CG"
"Time (sec)","Linear Displacement1 (mm)"
0,-60.3353517477021
0.00416666666666667,-60.3309090916106
0.00833333333333333,-60.3170701719049
0.0125,-60.2938754321799
0.0166666666666667,-60.2613926181459
0.0208333333333333,-60.2197165194749
0.025,-60.1689686093641
0.0291666666666667,-60.1092965838487
0.0333333333333333,-60.0408738035397
0.0375,-59.9638986409965
0.0416666666666667,-59.8785937374802
0.0458333333333333,-59.7852051733358
0.05,-59.6840015567188
0.0541666666666667,-59.5752730358161
0.0583333333333333,-59.4593302401058
0.0625,-59.3365031565519
0.0666666666666667,-59.2071399469329
0.0708333333333333,-59.0716057127644
0.075,-58.9302812144791
0.0791666666666667,-58.7835615516837
0.0833333333333333,-58.6318548114116
0.0875,-58.4755806913385
0.0916666666666667,-58.3151691049158
0.0958333333333333,-58.1510587753197
0.1,-57.9836958249903
0.104166666666667,-57.8135323673723
0.108333333333333,-57.6410251072477
0.1125,-57.4666339557841
0.116666666666667,-57.290820666113
0.120833333333333,-57.1140474949022
0.125,-56.9367758949938
0.129166666666667,-56.7594652437671
0.133333333333333,-56.5825716114309
0.1375,-56.4065465729868
0.141666666666667,-56.231836067117
0.145833333333333,-56.0588793047543
0.15,-55.8881077295927
0.154166666666667,-55.7199440322935
0.158333333333333,-55.5548012196502
0.1625,-55.39308173949
0.166666666666667,-55.2351766616249
0.170833333333333,-55.0814649147187
0.175,-54.932312578518
0.179166666666667,-54.7880722305053
0.183333333333333,-54.6490823456739
0.1875,-54.5156667478089
0.191666666666667,-54.3881341103711
0.195833333333334,-54.2667775048447
0.2,-54.1518739942085
0.204166666666667,-54.0436842690351
0.208333333333334,-53.9424523236095
0.2125,-53.8484051693887
0.216666666666667,-53.761752583097
0.220833333333334,-53.682686886764
0.225,-53.6113827570663
0.229166666666667,-53.5479970614246
0.233333333333334,-53.4926687184328
0.2375,-53.4455185803575
0.241666666666667,-53.4066493356307
0.245833333333334,-53.3761454294805
0.25,-53.3540730010779
0.254166666666667,-53.3404798358442
0.258333333333334,-53.3353953318356
0.2625,-53.3388304794246
0.266666666666667,-53.350777853728
0.270833333333334,-53.3712116197733
0.275,-53.4000875502358
0.279166666666667,-53.4373430564706
0.283333333333334,-53.4828972333948
0.2875,-53.536650919308
0.291666666666667,-53.5984867719451
0.295833333333334,-53.6682693623334
0.3,-53.7458452882666
0.304166666666667,-53.8310433094304
0.308333333333333,-53.9236745064103
0.3125,-54.0235324659729
0.316666666666667,-54.1303934951508
0.320833333333333,-54.2440168667529
0.325,-54.3641450989871
0.329166666666667,-54.4905042719007
0.333333333333333,-54.6228043833262
0.3375,-54.7607397469568
0.341666666666667,-54.9039894350743
0.345833333333333,-55.0522177682996
0.35,-55.2050748545521
0.354166666666667,-55.3621971791654
0.358333333333333,-55.5232082478364
0.3625,-55.6877192837721
0.366666666666667,-55.8553299800466
0.370833333333333,-56.0256293077993
0.375,-56.1981963804909
0.379166666666667,-56.3726013739922
0.383333333333333,-56.5484065018202
0.3875,-56.7251670443517
0.391666666666666,-56.9024324303571
0.395833333333333,-57.0797473686924
0.4,-57.2566530274888
0.404166666666666,-57.4326882576816
0.408333333333333,-57.6073908572299
0.4125,-57.7802988719113
0.416666666666666,-57.9509519281177
0.420833333333333,-58.1188925926592
0.425,-58.2836677541835
0.429166666666666,-58.4448300204634
0.433333333333333,-58.6019391254835
0.4375,-58.7545633399849
0.441666666666666,-58.9022808788943
0.445833333333333,-59.0446812988917
0.45,-59.1813668792383
0.454166666666666,-59.3119539789155
0.458333333333333,-59.4360743631075
0.4625,-59.5533764920939
0.466666666666666,-59.6635267657106
0.470833333333333,-59.7662107166793
0.475,-59.8611341463034
0.479166666666666,-59.9480241962779
0.483333333333333,-60.026630350652
0.487499999999999,-60.0967253623314
0.491666666666666,-60.1581060988893
0.495833333333333,-60.2105943028833
0.499999999999999,-60.2540372623373
0.504166666666666,-60.2883083875444
0.508333333333333,-60.3133076908709
0.512499999999999,-60.3289621667918
0.516666666666666,-60.3352260699589
0.520833333333333,-60.33208108969
0.524999999999999,-60.3195364198666
0.529166666666666,-60.2976287238341
0.533333333333333,-60.2664219945083
0.537499999999999,-60.2260073105007
0.541666666666666,-60.1765024896754
0.545833333333333,-60.1180516421461
0.549999999999999,-60.0508246252921
0.554166666666666,-59.9750164039355
0.558333333333333,-59.8908463193536
0.562499999999999,-59.7985572713031
0.566666666666666,-59.6984148177129
0.570833333333333,-59.5907061971363
0.574999999999999,-59.4757392794564
0.579166666666666,-59.3538414506913
0.583333333333332,-59.2253584380653
0.587499999999999,-59.0906530817664
0.591666666666666,-58.9501040600341
0.595833333333332,-58.8041045743747
0.599999999999999,-58.6530610018152
0.604166666666666,-58.497391521157
0.608333333333332,-58.337524720193
0.612499999999999,-58.1738981907916
0.616666666666666,-58.006957118648
0.620833333333332,-57.8371528743353
0.624999999999999,-57.6649416120816
0.629166666666666,-57.4907828824351
0.633333333333332,-57.3151382646786
0.637499999999999,-57.1384700245042
0.641666666666666,-56.9612398020815
0.645833333333332,-56.7839073352308
0.649999999999999,-56.6069292219761
0.654166666666666,-56.4307577262796
0.658333333333332,-56.2558396302818
0.662499999999999,-56.082615135874
0.666666666666666,-55.9115168179282
0.670833333333332,-55.7429686310111
0.674999999999999,-55.5773849709117
0.679166666666665,-55.4151697918257
0.683333333333332,-55.2567157795743
0.687499999999999,-55.1024035807815
0.691666666666665,-54.9526010875173
0.695833333333332,-54.8076627765126
0.699999999999999,-54.6679291016976
0.704166666666665,-54.5337259384848
0.708333333333332,-54.4053640779335
0.712499999999999,-54.2831387686861
0.716666666666665,-54.1673293043604
0.720833333333332,-54.0581986539225
0.724999999999999,-53.9559931324427
0.729166666666665,-53.8609421095663
0.733333333333332,-53.7732577529918
0.737499999999999,-53.6931348042618
0.741666666666665,-53.6207503842165
0.745833333333332,-53.5562638255476
0.749999999999999,-53.4998165300103
0.754166666666665,-53.4515318480057
0.758333333333332,-53.4115149784321
0.762499999999999,-53.3798528869152
0.766666666666665,-53.3566142407641
0.770833333333332,-53.3418493592584
0.774999999999998,-53.335590178144
0.779166666666665,-53.3378502275102
0.783333333333332,-53.3486246225116
0.787499999999998,-53.367890066711
0.791666666666665,-53.3956048681248
0.795833333333332,-53.431708968359
0.799999999999998,-53.4761239855286
0.804166666666665,-53.5287532719472
0.808333333333332,-53.5894819878533
0.812499999999998,-53.6581771927088
0.816666666666665,-53.7346879558513
0.820833333333332,-53.8188454885048
0.824999999999998,-53.9104632993544
0.829166666666665,-54.0093373760558
0.833333333333332,-54.1152463951938
0.837499999999998,-54.2279519632985
0.841666666666665,-54.3471988916025
0.845833333333332,-54.4727155072425
0.849999999999998,-54.6042140035976
0.854166666666665,-54.7413908324021
0.858333333333332,-54.8839271401681
0.862499999999998,-55.0314892513172
0.866666666666665,-55.1837292002298
0.870833333333331,-55.3402853141985
0.874999999999998,-55.5007828490023
0.879166666666665,-55.6648346785083
0.883333333333331,-55.8320420393671
0.887499999999998,-56.0019953314871
0.891666666666665,-56.1742749745605
0.895833333333331,-56.3484523204823
0.899999999999998,-56.5240906210371
0.904166666666665,-56.7007460497561
0.908333333333331,-56.8779687763505
0.912499999999998,-57.055304091633
0.916666666666665,-57.2322935803318
0.920833333333331,-57.40847633871
0.924999999999998,-57.5833902334078
0.929166666666665,-57.756573197453
0.933333333333331,-57.9275645589316
0.937499999999998,-58.0959063973777
0.941666666666665,-58.261144922546
0.945833333333331,-58.4228318698644
0.949999999999998,-58.5805259065407
0.954166666666664,-58.7337940420156
0.958333333333331,-58.8822130362205
0.962499999999998,-59.0253707989111
0.966666666666664,-59.1628677732162
0.970833333333331,-59.2943182964591
0.974999999999998,-59.4193519312817
0.979166666666664,-59.537614760132
0.983333333333331,-59.648770636255
0.987499999999998,-59.7525023844663
0.991666666666664,-59.848512945176
0.995833333333331,-59.9365264553713
0.999999999999998,-60.0162892605556
1.00416666666666,-60.087570851979
1.00833333333333,-60.1501647238748
1.0125,-60.2038891458375
1.01666666666666,-60.248587845936
1.02083333333333,-60.2841306006469
1.025,-60.3104137282152
1.02916666666666,-60.3273604825947
1.03333333333333,-60.3349213456897
1.0375,-60.3330742162048
1.04166666666666,-60.3218244940071
1.04583333333333,-60.30120505951
1.05,-60.2712761481998
1.05416666666666,-60.2321251210323
1.05833333333333,-60.1838661320316
1.0625,-60.1266396950158
1.06666666666666,-60.0606121519543
1.07083333333333,-59.9859750460188
1.075,-59.9029444029333
1.07916666666666,-59.8117599247298
1.08333333333333,-59.7126841005044
1.0875,-59.6060012392052
1.09166666666666,-59.4920164298933
1.09583333333333,-59.371054435279
1.1,-59.2434585246539
1.10416666666666,-59.1095892526132
1.10833333333333,-58.9698231901784
1.1125,-58.8245516151038
1.11666666666666,-58.6741791682636
1.12083333333333,-58.5191224830768
1.125,-58.3598087949383
1.12916666666666,-58.1966745375689
1.13333333333333,-58.0301639331034
1.1375,-57.8607275825755
1.14166666666666,-57.6888210632561
1.14583333333333,-57.5149035390477
1.15,-57.3394363898381
1.15416666666666,-57.1628818653774
1.15833333333333,-56.985701768864
1.1625,-56.8083561750113
1.16666666666666,-56.6313021869322
1.17083333333333,-56.454992735709
1.175,-56.2798754260396
1.17916666666666,-56.1063914308558
1.18333333333333,-55.9349744373084
1.1875,-55.7660496460141
1.19166666666666,-55.6000328249609
1.19583333333333,-55.4373294189841
1.2,-55.2783337152494
1.20416666666666,-55.1234280647332
1.20833333333333,-54.972982159259
1.2125,-54.8273523632522
1.21666666666666,-54.6868810990099
1.22083333333333,-54.5518962839518
1.225,-54.422710818025
1.22916666666666,-54.2996221191837
1.23333333333333,-54.1829117046568
1.2375,-54.0728448155439
1.24166666666666,-53.969670082159
1.24583333333333,-53.8736192274593
1.25,-53.7849068058562
1.25416666666666,-53.7037299747078
1.25833333333333,-53.6302682958361
1.2625,-53.5646835644912
1.26666666666666,-53.5071196633015
1.27083333333333,-53.4577024389004
1.275,-53.4165395990992
1.27916666666666,-53.3837206286861
1.28333333333333,-53.3593167221646
1.2875,-53.3433807319976
1.29166666666666,-53.3359471312014
1.29583333333333,-53.3370319894139
1.3,-53.3466329618661
1.30416666666666,-53.3647292909858
1.30833333333333,-53.3912818206751
1.3125,-53.4262330236062
1.31666666666666,-53.4695070421875
1.32083333333333,-53.5210097441469
1.325,-53.5806287939604
1.32916666666666,-53.6482337416269
1.33333333333333,-53.7236761305358
1.3375,-53.8067896264056
1.34166666666666,-53.89739016947
1.34583333333333,-53.9952761522646
1.35,-54.1002286255072
1.35416666666666,-54.2120115346722
1.35833333333333,-54.3303719899336
1.3625,-54.4550405721783
1.36666666666666,-54.5857316777882
1.37083333333333,-54.7221439048374
1.375,-54.863960483257
1.37916666666666,-55.0108497513881
1.38333333333333,-55.1624656811599
1.3875,-55.3184484539142
1.39166666666666,-55.4784250886296
1.39583333333333,-55.642010124
1.4,-55.8088063554814
1.40416666666666,-55.9784056280466
1.40833333333333,-56.1503896849793
1.4125,-56.3243310726101
1.41666666666666,-56.499794100435
1.42083333333333,-56.6763358555834
1.425,-56.8535072701134
1.42916666666666,-57.0308542391116
1.43333333333333,-57.2079187870742
1.4375,-57.3842402795481
1.44166666666666,-57.5593566765175
1.44583333333333,-57.7328058235464
1.45,-57.9041267762283
1.45416666666666,-58.0728611530616
1.45833333333333,-58.2385545114656
1.4625,-58.4007577412843
1.46666666666666,-58.5590284697925
1.47083333333333,-58.7129324719336
1.475,-58.8620450792762
1.47916666666666,-59.0059525809845
1.48333333333333,-59.1442536099555
1.4875,-59.2765605071896
1.49166666666666,-59.402500657425
1.49583333333333,-59.5217177890884
1.5,-59.6338732316886
1.50416666666666,-59.7386471239102
1.50833333333333,-59.8357395658449
1.5125,-59.924871709033
1.51666666666666,-60.0057867782712
1.52083333333333,-60.0782510194703
1.525,-60.1420545682252
1.52916666666666,-60.1970122341697
1.53333333333333,-60.2429641966461
1.5375,-60.2797766077054
1.54166666666666,-60.3073420989694
1.54583333333333,-60.3255801894333
1.55,-60.3344375918484
1.55416666666666,-60.333888415912
1.55833333333333,-60.3239342670841
1.5625,-60.3046042404581
1.56666666666666,-60.2759548097204
1.57083333333333,-60.2380696118444
1.575,-60.1910591287668
1.57916666666666,-60.1350602678915
1.58333333333333,-60.0702358438441
1.5875,-59.9967739644677
1.59166666666666,-59.9148873245866
1.59583333333333,-59.8248124115827
1.6,-59.7268086273096
1.60416666666666,-59.6211573313201
1.60833333333333,-59.5081608107938
1.6125,-59.3881411829189
1.61666666666666,-59.2614392358101
1.62083333333333,-59.1284132143183
1.625,-58.9894375573198
1.62916666666666,-58.8449015932438
1.63333333333333,-58.6952082007252
1.6375,-58.5407724413351
1.64166666666666,-58.3820201713548
1.64583333333333,-58.2193866395237
1.65,-58.0533150775904
1.65416666666666,-57.8842552903537
1.65833333333333,-57.7126622516812
1.6625,-57.5389947127441
1.66666666666666,-57.3637138284174
1.67083333333333,-57.1872818074573
1.675,-57.0101605916951
1.67916666666666,-56.8328105690811
1.68333333333333,-56.6556893249739
1.6875,-56.4792504356096
1.69166666666666,-56.3039423072102
1.69583333333333,-56.1302070636923
1.7,-55.9584794854441
1.70416666666666,-55.7891860011312
1.70833333333333,-55.6227437339981
1.7125,-55.4595596036427
1.71666666666666,-55.3000294837649
1.72083333333333,-55.1445374159402
1.725,-54.9934548790344
1.72916666666666,-54.8471401134744
1.73333333333333,-54.7059374992208
1.7375,-54.5701769859517
1.74166666666666,-54.4401735736676
1.74583333333333,-54.3162268416726
1.75,-54.1986205236686
1.75416666666666,-54.0876221265257
1.75833333333333,-53.9834825901637
1.7625,-53.8864359858868
1.76666666666666,-53.7966992504761
1.77083333333333,-53.7144719533332
1.775,-53.6399360940117
1.77916666666666,-53.5732559275449
1.78333333333333,-53.5145778150907
1.78749999999999,-53.4640300975615
1.79166666666666,-53.4217229900825
1.79583333333333,-53.3877484953269
1.79999999999999,-53.3621803340093
1.80416666666666,-53.3450738910665
1.80833333333333,-53.3364661763299
1.81249999999999,-53.3363757987771
1.81666666666666,-53.3448029537456
1.82083333333333,-53.3617294227997
1.82499999999999,-53.3871185862453
1.82916666666666,-53.4209154485987
1.83333333333333,-53.4630466776172
1.83749999999999,-53.5134206577997
1.84166666666666,-53.5719275595459
1.84583333333333,-53.6384394254407
1.84999999999999,-53.712810275375
1.85416666666666,-53.7948762324535
1.85833333333333,-53.8844556718371
1.86249999999999,-53.981349394854
1.86666666666666,-54.0853408308516
1.87083333333333,-54.1961962693802
1.87499999999999,-54.3136651253727
1.87916666666666,-54.4374802400215
1.88333333333333,-54.567358220055
1.88749999999999,-54.702999818067
1.89166666666666,-54.8440903564707
1.89583333333333,-54.9903001975147
1.89999999999999,-55.1412852616298
1.90416666666666,-55.2966875961564
1.90833333333333,-55.4561359962473
1.91249999999999,-55.6192466794446
1.91666666666666,-55.7856240150913
1.92083333333333,-55.9548613093729
1.92499999999999,-56.126541646378
1.92916666666666,-56.3002387851409
1.93333333333333,-56.4755181121712
1.93749999999999,-56.6519376485054
1.94166666666666,-56.829049109824
1.94583333333333,-57.0063990176825
1.94999999999999,-57.1835298594019
1.95416666666666,-57.3599812936649
1.95833333333333,-57.5352913983706
1.96249999999999,-57.7089979568245
1.96666666666666,-57.8806397778741
1.97083333333333,-58.0497580451694
1.97499999999999,-58.2158976903153
1.97916666666666,-58.3786087843117
1.98333333333333,-58.5374479413405
1.98749999999999,-58.6919797286632
1.99166666666666,-58.8417780761499
1.99583333333333,-58.9864276787553
1.99999999999999,-59.1255253851125
2.00416666666666,-59.2586815653204
2.00833333333333,-59.3855214509556
2.01249999999999,-59.5056864403558
2.01666666666666,-59.6188353622879
2.02083333333333,-59.7246456912365
2.025,-59.8228147077222
2.02916666666666,-59.9130605972873
2.03333333333333,-59.9951234820628
2.0375,-60.0687663791527
2.04166666666666,-60.1337760804428
2.04583333333333,-60.1899639488472
2.05,-60.2371666264594
2.05416666666666,-60.2752466505521
2.05833333333333,-60.3040929738862
2.0625,-60.3236213863299
2.06666666666666,-60.333774835349
2.07083333333333,-60.3345236435144
2.075,-60.3258656217625
2.07916666666666,-60.3078260777529
2.08333333333333,-60.2804577192741
2.0875,-60.243840453258
2.09166666666667,-60.1980810815695
2.09583333333333,-60.1433128953336
2.1,-60.0796951701458
2.10416666666667,-60.0074125650774
2.10833333333333,-59.9266744289328
2.1125,-59.8377140177302
2.11666666666667,-59.7407876278698
2.12083333333333,-59.636173649903
2.125,-59.524171548236
2.12916666666667,-59.4051007724741
2.13333333333333,-59.2792996064443
2.1375,-59.1471239612203
2.14166666666667,-59.0089461187042
2.14583333333333,-58.8651534325086
2.15,-58.7161469930064
2.15416666666667,-58.5623402634981
2.15833333333334,-58.4041576944637
2.1625,-58.2420333228361
2.16666666666667,-58.0764093631426
2.17083333333334,-57.9077347972272
2.175,-57.7364639690664
2.17916666666667,-57.5630551909588
2.18333333333334,-57.3879693670782
2.1875,-57.2116686400505
2.19166666666667,-57.0346150658495
2.19583333333334,-56.8572693218993
2.2,-56.6800894528444
2.20416666666667,-56.5035296579846
2.20833333333334,-56.3280391239003
2.2125,-56.1540609053005
2.21666666666667,-55.9820308566277
2.22083333333334,-55.8123766164505
2.22500000000001,-55.6455166461808
2.22916666666667,-55.4818593241548
2.23333333333334,-55.3218020956495
2.23750000000001,-55.1657306789416
2.24166666666667,-55.0140183270848
2.24583333333334,-54.8670251446758
2.25000000000001,-54.725097458501
2.25416666666667,-54.5885672406186
2.25833333333334,-54.457751582125
2.26250000000001,-54.332952215594
2.26666666666667,-54.2144550839514
2.27083333333334,-54.1025299533719
2.27500000000001,-53.9974300676453
2.27916666666667,-53.8993918413687
2.28333333333334,-53.8086345892667
2.28750000000001,-53.7253602889365
2.29166666666668,-53.6497533743442
2.29583333333334,-53.5819805574683
2.30000000000001,-53.5221906755955
2.30416666666668,-53.4705145619122
2.30833333333334,-53.4270649372113
2.31250000000001,-53.3919363207311
2.31666666666668,-53.3652049583752
2.32083333333334,-53.3469287668074
2.32500000000001,-53.3371472921856
2.32916666666668,-53.3358816825839
2.33333333333334,-53.3431346734442
2.33750000000001,-53.3588905857047
2.34166666666668,-53.3831153365587
2.34583333333334,-53.4157564631077
2.35000000000001,-53.4567431594741
2.35416666666668,-53.5059863282409
2.35833333333335,-53.5633786473708
2.36250000000001,-53.6287946540313
2.36666666666668,-53.7020908470071
2.37083333333335,-53.7831058096168
2.37500000000001,-53.8716603552575
2.37916666666668,-53.9675576978859
2.38333333333335,-54.0705836498923
2.38750000000001,-54.1805068499437
2.39166666666668,-54.2970790234518
2.39583333333335,-54.4200352783654
2.40000000000001,-54.5490944389906
2.40416666666668,-54.6839594205033
2.40833333333335,-54.8243176467369
2.41250000000001,-54.9698415137062
2.41666666666668,-55.1201889011606
2.42083333333335,-55.2750037342492
2.42500000000002,-55.4339165971317
2.42916666666668,-55.5965454000736
