"Big Lin Disp at CG"
"Time (sec)","Linear Displacement1 (mm)"
0,-60.3353553972006
0.00666666666666667,-60.3308940666037
0.0133333333333333,-60.3175224421883
0.02,-60.2952775814244
0.0266666666666667,-60.2642210977184
0.0333333333333333,-60.2244389378186
0.04,-60.1760410718357
0.0466666666666667,-60.1191610976356
0.0533333333333333,-60.0539557617639
0.06,-59.9806043995193
0.0666666666666667,-59.8993082972236
0.0733333333333333,-59.810289980148
0.08,-59.7137924299382
0.0866666666666667,-59.6100782357379
0.0933333333333333,-59.4994286835383
0.1,-59.382142788572
0.106666666666667,-59.25853627583
0.113333333333333,-59.1289405139996
0.12,-58.9937014083014
0.126666666666667,-58.853178257847
0.133333333333333,-58.7077425832333
0.14,-58.5577769301487
0.146666666666667,-58.4036736547767
0.153333333333333,-58.2458336967546
0.16,-58.0846653453692
0.166666666666667,-57.9205830045603
0.173333333333333,-57.7540059621444
0.18,-57.5853571684807
0.186666666666667,-57.4150620295702
0.193333333333333,-57.2435472193134
0.2,-57.0712395153608
0.206666666666667,-56.8985646626651
0.213333333333333,-56.7259462684988
0.22,-56.5538047323338
0.226666666666666,-56.3825562135986
0.233333333333333,-56.21261163993
0.24,-56.0443757581395
0.246666666666666,-55.8782462297042
0.253333333333333,-55.7146127721897
0.26,-55.553856347614
0.266666666666666,-55.3963483983699
0.273333333333333,-55.242450130948
0.28,-55.0925118473428
0.286666666666666,-54.9468723236853
0.293333333333333,-54.8058582353302
0.3,-54.6697836273349
0.306666666666666,-54.5389494290076
0.313333333333333,-54.413643010972
0.32,-54.2941377829936
0.326666666666666,-54.1806928306509
0.333333333333333,-54.0735525888
0.34,-53.9729465496832
0.346666666666666,-53.8790890034679
0.353333333333333,-53.7921788089719
0.36,-53.7123991923313
0.366666666666666,-53.6399175714017
0.373333333333333,-53.5748854037468
0.38,-53.5174380561588
0.386666666666666,-53.467694693776
0.393333333333333,-53.425758187004
0.4,-53.3917150346137
0.406666666666666,-53.3656353015735
0.413333333333333,-53.3475725703772
0.419999999999999,-53.3375639048447
0.426666666666666,-53.3356298256046
0.433333333333333,-53.3417742967033
0.439999999999999,-53.3559847230335
0.446666666666666,-53.3782319585221
0.453333333333333,-53.4084703252664
0.459999999999999,-53.4466376440564
0.466666666666666,-53.492655276962
0.473333333333333,-53.546428182898
0.479999999999999,-53.6078449873041
0.486666666666666,-53.6767780672871
0.493333333333333,-53.7530836537658
0.499999999999999,-53.8366019523348
0.506666666666666,-53.9271572847179
0.513333333333333,-54.0245582528118
0.519999999999999,-54.1285979274255
0.526666666666666,-54.2390540638993
0.533333333333333,-54.3556893468324
0.54,-54.4782516661704
0.546666666666666,-54.6064744268809
0.553333333333333,-54.7400768944056
0.56,-54.8787645779873
0.566666666666666,-55.022229653862
0.573333333333333,-55.1701514301481
0.58,-55.3221968550895
0.586666666666667,-55.4780210700876
0.593333333333333,-55.6372680087136
0.6,-55.7995710426158
0.606666666666667,-55.9645536749316
0.613333333333333,-56.1318302814886
0.62,-56.3010068997251
0.626666666666667,-56.4716820648957
0.633333333333334,-56.6434476927414
0.64,-56.8158900074078
0.646666666666667,-56.9885905129953
0.653333333333334,-57.1611270067173
0.66,-57.3330746312389
0.666666666666667,-57.5040069633691
0.673333333333334,-57.6734971358923
0.68,-57.8411189889475
0.686666666666667,-58.0064482470091
0.693333333333334,-58.1690637171879
0.700000000000001,-58.3285485042628
0.706666666666667,-58.4844912375745
0.713333333333334,-58.6364873046659
0.720000000000001,-58.7841400863435
0.726666666666667,-58.9270621876599
0.733333333333334,-59.0648766591827
0.740000000000001,-59.197218202824
0.746666666666668,-59.3237343564529
0.753333333333334,-59.4440866515051
0.760000000000001,-59.5579517378395
0.766666666666668,-59.6650224701712
0.773333333333334,-59.7650089505274
0.780000000000001,-59.8576395213379
0.786666666666668,-59.942661703971
0.793333333333335,-60.0198430777688
0.800000000000001,-60.0889720949085
0.806666666666668,-60.149858826731
0.813333333333335,-60.2023356375196
0.820000000000001,-60.2462577820805
0.826666666666668,-60.2815039238804
0.833333333333335,-60.3079765709128
0.840000000000002,-60.3256024269087
0.846666666666668,-60.3343326559665
0.853333333333335,-60.3341430591453
0.860000000000002,-60.3250341620514
0.866666666666668,-60.3070312129356
0.873333333333335,-60.2801840913108
0.880000000000002,-60.2445671275947
0.886666666666668,-60.2002788347681
0.893333333333335,-60.1474415535241
0.900000000000002,-60.0862010128545
0.906666666666669,-60.0167258084757
0.913333333333335,-59.9392068019411
0.920000000000002,-59.8538564437031
0.926666666666669,-59.760908023788
0.933333333333335,-59.6606148541165
0.940000000000002,-59.5532493868431
0.946666666666669,-59.4391022733997
0.953333333333336,-59.3184813691997
0.960000000000002,-59.1917106892032
0.966666666666669,-59.059129319737
0.973333333333336,-58.9210902921303
0.980000000000002,-58.7779594238396
0.986666666666669,-58.630114132818
0.993333333333336,-58.4779422309115
1,-58.3218407020613
1.00666666666667,-58.1622144710348
1.01333333333334,-57.9994751683132
1.02,-57.8340398966311
1.02666666666667,-57.6663300044843
1.03333333333334,-57.4967698717116
1.04,-57.3257857120093
1.04666666666667,-57.1538043969524
1.05333333333334,-56.9812523057939
1.06,-56.8085542049709
1.06666666666667,-56.6361321608941
1.07333333333334,-56.4644044892195
1.08,-56.293784743412
1.08666666666667,-56.1246807450105
1.09333333333333,-55.9574936576025
1.1,-55.7926171061067
1.10666666666667,-55.6304363425628
1.11333333333333,-55.471327459232
1.12,-55.3156566494284
1.12666666666667,-55.1637795161334
1.13333333333333,-55.0160404280958
1.14,-54.8727719227943
1.14666666666667,-54.7342941553341
1.15333333333333,-54.6009143920779
1.16,-54.4729265475625
1.16666666666667,-54.3506107630401
1.17333333333333,-54.2342330248014
1.18,-54.1240448202878
1.18666666666667,-54.0202828298873
1.19333333333333,-53.9231686522258
1.2,-53.832908560722
1.20666666666667,-53.7496932891553
1.21333333333333,-53.6736978440204
1.22,-53.6050813414851
1.22666666666667,-53.5439868668524
1.23333333333333,-53.4905413545284
1.24,-53.4448554866341
1.24666666666667,-53.4070236085502
1.25333333333333,-53.3771236598628
1.26,-53.3552171193714
1.26666666666667,-53.3413489630314
1.27333333333333,-53.335547633928
1.28,-53.3378250236118
1.28666666666667,-53.3481764643706
1.29333333333333,-53.3665807322579
1.3,-53.3930000609479
1.30666666666667,-53.4273801667368
1.31333333333333,-53.4696502852544
1.32,-53.5197232206869
1.32666666666667,-53.5774954085443
1.33333333333333,-53.6428469932193
1.34,-53.715641921788
1.34666666666667,-53.7957280556877
1.35333333333333,-53.8829373020707
1.36,-53.9770857667759
1.36666666666667,-54.0779739309769
1.37333333333333,-54.1853868536558
1.38,-54.2990944021153
1.38666666666667,-54.4188515127717
1.39333333333333,-54.5443984844744
1.4,-54.6754613065612
1.40666666666666,-54.811752023797
1.41333333333333,-54.9529691402412
1.42,-55.0987980639562
1.42666666666666,-55.2489115943009
1.43333333333333,-55.4029704533556
1.44,-55.5606238627896
1.44666666666666,-55.7215101672213
1.45333333333333,-55.8852575048316
1.46,-56.0514845256721
1.46666666666666,-56.2198011577709
1.47333333333333,-56.3898094207792
1.48,-56.561104286523
1.48666666666666,-56.7332745854356
1.49333333333333,-56.9059039574467
1.5,-57.0785718454984
1.50666666666666,-57.2508545294545
1.51333333333333,-57.4223261977658
1.52,-57.5925600538615
1.52666666666666,-57.7611294538535
1.53333333333333,-57.927609071774
1.54,-58.0915760882242
1.54666666666666,-58.2526113979872
1.55333333333333,-58.410300831866
1.56,-58.5642363877469
1.56666666666666,-58.7140174656569
1.57333333333333,-58.8592521013948
1.58,-58.9995581931599
1.58666666666666,-59.1345647154923
1.59333333333333,-59.2639129147656
1.6,-59.3872574804444
1.60666666666666,-59.5042676863353
1.61333333333333,-59.6146284961168
1.62,-59.718041627532
1.62666666666666,-59.8142265697743
1.63333333333333,-59.902921548774
1.64,-59.983884435321
1.64666666666666,-60.0568935912128
1.65333333333333,-60.1217486489172
1.66,-60.1782712205626
1.66666666666666,-60.2263055324289
1.67333333333333,-60.2657189814977
1.68,-60.2964026110319
1.68666666666666,-60.3182715025838
1.69333333333333,-60.3312650822872
1.7,-60.3353473397492
1.70666666666666,-60.3305069583409
1.71333333333333,-60.3167573561604
1.72,-60.29413663747
1.72666666666666,-60.2627074548285
1.73333333333333,-60.2225567827248
1.73999999999999,-60.1737956039279
1.74666666666666,-60.1165585102863
1.75333333333333,-60.0510032201597
1.75999999999999,-59.9773100151215
1.76666666666666,-59.8956810989971
1.77333333333333,-59.8063398827126
1.77999999999999,-59.7095301988157
1.78666666666666,-59.6055154498793
1.79333333333333,-59.494577695331
1.79999999999999,-59.3770166815378
1.80666666666666,-59.2531488202343
1.81333333333333,-59.1233061206015
1.81999999999999,-58.9878350804816
1.82666666666666,-58.8470955423531
1.83333333333333,-58.701459519789
1.83999999999999,-58.5513100001714
1.84666666666666,-58.3970397294496
1.85333333333333,-58.2390499846965
1.85999999999999,-58.0777493401415
1.86666666666666,-57.9135524322437
1.87333333333333,-57.7468787292132
1.87999999999999,-57.5781513101899
1.88666666666666,-57.4077956590625
1.89333333333333,-57.2362384776411
1.89999999999999,-57.0639065226035
1.90666666666666,-56.8912254703103
1.91333333333333,-56.7186188132373
1.91999999999999,-56.5465067914065
1.92666666666666,-56.3753053618131
1.93333333333333,-56.2054252084503
1.93999999999999,-56.0372707951339
1.94666666666666,-55.8712394629184
1.95333333333333,-55.7077205734978
1.95999999999999,-55.5470946995801
1.96666666666666,-55.3897328628381
1.97333333333333,-55.2359958196645
1.97999999999999,-55.0862333945954
1.98666666666666,-54.9407838609356
1.99333333333333,-54.7999733677975
1.99999999999999,-54.6641154124814
2.00666666666666,-54.5335103568643
2.01333333333333,-54.4084449862322
2.01999999999999,-54.2891921087981
2.02666666666666,-54.1760101939793
2.03333333333333,-54.0691430473776
2.03999999999999,-53.968819520312
2.04666666666666,-53.8752532516859
2.05333333333333,-53.7886424399451
2.05999999999999,-53.709169642884
2.06666666666666,-53.6370016030922
2.07333333333333,-53.5722890968988
2.07999999999999,-53.5151668047645
2.08666666666666,-53.4657532011906
2.09333333333333,-53.4241504623598
2.09999999999999,-53.3904443898881
2.10666666666666,-53.3647043492542
2.11333333333333,-53.3469832216767
2.11999999999999,-53.3373173684257
2.12666666666666,-53.3357266067873
2.13333333333333,-53.3422141971377
2.14,-53.3567668408277
2.14666666666666,-53.3793546888307
2.15333333333333,-53.4099313613516
2.16,-53.448433978847
2.16666666666666,-53.4947832051427
2.17333333333333,-53.5488833035746
2.18,-53.6106222072968
2.18666666666666,-53.6798716051131
2.19333333333333,-53.7564870443819
2.2,-53.8403080527154
2.20666666666666,-53.9311582803519
2.21333333333333,-54.0288456652046
2.22,-54.1331626226993
2.22666666666666,-54.2438862625836
2.23333333333333,-54.3607786349427
2.24,-54.4835870076676
2.24666666666666,-54.6120441776079
2.25333333333333,-54.7458688175908
2.26,-54.884765861403
2.26666666666666,-55.0284269287178
2.27333333333333,-55.1765307917951
2.28,-55.3287438855997
2.28666666666667,-55.4847208627646
2.29333333333333,-55.6441051945799
2.3,-55.8065298189082
2.30666666666667,-55.9716178356241
2.31333333333333,-56.1389832498467
2.32,-56.3082317628815
2.32666666666667,-56.4789616104193
2.33333333333333,-56.6507644471566
2.34,-56.823226276604
2.34666666666667,-56.9959284244482
2.35333333333333,-57.1684485534274
2.36,-57.3403617172749
2.36666666666667,-57.511241450888
2.37333333333333,-57.6806608934901
2.38,-57.8481939411813
2.38666666666667,-58.0134164249135
2.39333333333333,-58.1759073095992
2.4,-58.3352499097465
2.40666666666667,-58.4910331167464
2.41333333333333,-58.6428526326829
2.42,-58.7903122053341
2.42666666666667,-58.933024858857
2.43333333333334,-59.0706141145179
2.44,-59.2027151957378
2.44666666666667,-59.328976211675
2.45333333333334,-59.4490593135595
2.46,-59.5626418180318
2.46666666666667,-59.6694172918189
2.47333333333334,-59.7690965922008
2.48,-59.8614088578871
2.48666666666667,-59.9461024451231
2.49333333333334,-60.0229458040909
2.5,-60.0917282909458
2.50666666666667,-60.1522609111404
2.51333333333334,-60.2043769900369
2.52,-60.2479327671755
2.52666666666667,-60.2828079109702
2.53333333333334,-60.308905951023
2.54,-60.326154625692
2.54666666666667,-60.3345061430058
2.55333333333334,-60.3339373534915
2.56,-60.3244498339648
2.56666666666667,-60.306069881821
2.57333333333334,-60.2788484198586
2.58000000000001,-60.2428608121595
2.58666666666667,-60.1982065920374
2.59333333333334,-60.1450091035518
2.60000000000001,-60.0834150585499
2.60666666666667,-60.0135940116625
2.61333333333334,-59.9357377561144
2.62000000000001,-59.8500596436342
2.62666666666667,-59.7567938321393
2.63333333333334,-59.6561944652467
2.64000000000001,-59.5485347879955
2.64666666666667,-59.4341062034784
2.65333333333334,-59.3132172753512
2.66000000000001,-59.186192681427
2.66666666666667,-59.0533721237605
2.67333333333334,-58.9151092007854
2.68000000000001,-58.7717702471859
2.68666666666667,-58.6237331472556
2.69333333333334,-58.4713861275322
2.70000000000001,-58.3151265344809
2.70666666666667,-58.155359602948
2.71333333333334,-57.9924972210087
2.72000000000001,-57.8269566966956
2.72666666666668,-57.6591595319176
2.73333333333334,-57.4895302086642
2.74000000000001,-57.3184949923424
2.74666666666668,-57.1464807568094
2.75333333333334,-56.9739138353566
2.76000000000001,-56.8012189015593
2.76666666666668,-56.6288178835549
2.77333333333334,-56.4571289149292
2.78000000000001,-56.2865653250059
2.78666666666668,-56.1175346709319
2.79333333333334,-55.9504378135464
2.80000000000001,-55.7856680386185
2.80666666666668,-55.6236102246341
2.81333333333334,-55.4646400579186
2.82000000000001,-55.3091232955001
2.82666666666668,-55.1574150757499
2.83333333333334,-55.0098592764892
2.84000000000001,-54.8667879199243
2.84666666666668,-54.7285206234701
2.85333333333335,-54.5953640952519
2.86000000000001,-54.4676116728254
2.86666666666668,-54.3455429034478
2.87333333333335,-54.2294231640476
2.88000000000001,-54.1195033188968
2.88666666666668,-54.0160194128752
2.89333333333335,-53.9191923981356
2.90000000000001,-53.8292278919372
2.90666666666668,-53.7463159633975
2.91333333333335,-53.6706309469352
2.92000000000001,-53.6023312802274
2.92666666666668,-53.5415593645821
2.93333333333335,-53.4884414457357
2.94000000000001,-53.4430875132176
2.94666666666668,-53.4055912165795
2.95333333333335,-53.3760297969644
2.96000000000001,-53.3544640326854
2.96666666666668,-53.3409381976968
2.97333333333335,-53.3354800320617
2.98000000000001,-53.3381007237604
2.98666666666668,-53.3487949014206
2.99333333333335,-53.3675406378025
3.00000000000002,-53.3942994641195
3.00666666666668,-53.4290163955242
3.01333333333335,-53.471619968333
3.02000000000002,-53.5220222898024
3.02666666666668,-53.5801191014982
3.03333333333335,-53.645789857513
3.04000000000002,-53.7188978189925
3.04666666666668,-53.7992901666117
3.05333333333335,-53.886798132807
3.06000000000002,-53.9812371557111
3.06666666666668,-54.0824070568539
3.07333333333335,-54.1900922447831
3.08000000000002,-54.3040619468167
3.08666666666668,-54.4240704711732
3.09333333333335,-54.5498575017214
3.10000000000002,-54.6811484275612
3.10666666666668,-54.8176547095751
3.11333333333335,-54.9590742859931
3.12000000000002,-55.1050920188766
3.12666666666668,-55.2553801832576
3.13333333333335,-55.4095990004693
3.14000000000002,-55.5673972169701
3.14666666666669,-55.7284127296984
3.15333333333335,-55.8922732587057
3.16000000000002,-56.0585970674964
3.16666666666669,-56.2269937311619
3.17333333333335,-56.3970649520354
3.18000000000002,-56.5684054222174
3.18666666666669,-56.7406037319287
3.19333333333335,-56.9132433222512
3.20000000000002,-57.0859034804084
3.20666666666669,-57.2581603753359
3.21333333333335,-57.4295881308862
3.22000000000002,-57.5997599336234
3.22666666666669,-57.7682491717761
3.23333333333335,-57.9346306015566
3.24000000000002,-58.0984815367081
3.24666666666669,-58.2593830568198
3.25333333333335,-58.4169212296615
3.26000000000002,-58.5706883425233
3.26666666666669,-58.720284137325
3.27333333333335,-58.8653170440632
3.28000000000002,-59.0054054070178
3.28666666666669,-59.1401786980257
3.29333333333336,-59.269278711061
3.30000000000002,-59.3923607323353
3.30666666666669,-59.5090946801462
3.31333333333336,-59.6191662087638
3.32000000000002,-59.7222777707451
3.32666666666669,-59.8181496322114
3.33333333333336,-59.906520835808
3.34000000000002,-59.9871501062884
3.34666666666669,-60.0598166939275
3.35333333333336,-60.1243211512636
3.36000000000002,-60.180486038998
3.36666666666669,-60.2281565572417
3.37333333333336,-60.2672010986832
3.38000000000002,-60.2975117206667
3.38666666666669,-60.3190045335986
3.39333333333336,-60.331620003556
3.40000000000002,-60.3353231674351
3.40666666666669,-60.3301037594616
3.41333333333336,-60.3159762483292
3.42000000000002,-60.2929797848748
3.42666666666669,-60.2611780603902
3.43333333333336,-60.2206590765382
3.44000000000003,-60.1715348280254
3.44666666666669,-60.1139408998107
3.45333333333336,-60.0480359810506
3.46000000000003,-59.9740012984353
3.46666666666669,-59.8920399720016
3.47333333333336,-59.8023762969119
3.48000000000003,-59.7052549550774
3.48666666666669,-59.6009401608507
3.49333333333336,-59.4897147453437
3.50000000000003,-59.3718791842123
3.50666666666669,-59.2477505740057
3.51333333333336,-59.1176615623956
3.52000000000003,-58.9819592377792
3.52666666666669,-58.8410039838821
3.53333333333336,-58.6951683050907
3.54000000000003,-58.5448356282855
3.54666666666669,-58.3903990869645
3.55333333333336,-58.2322602934074
3.56000000000003,-58.070828104555
3.56666666666669,-57.9065173871638
3.57333333333336,-57.7397477876319
3.58000000000003,-57.5709425117014
3.5866666666667,-57.4005271190052
3.59333333333336,-57.2289283371622
3.60000000000003,-57.0565728998271
3.6066666666667,-56.8838864127753
3.61333333333336,-56.711292251756
3.62000000000003,-56.5392104954801
3.6266666666667,-56.3680568967215
3.63333333333336,-56.1982418941196
3.64000000000003,-56.030169666864
3.6466666666667,-55.8642372340402
3.65333333333336,-55.7008336000084
3.66000000000003,-55.5403389467903
3.6666666666667,-55.3831238740497
3.67333333333336,-55.2295486868773
3.68000000000003,-55.079962731233
3.6866666666667,-54.9347037765607
3.69333333333336,-54.7940974447779
3.70000000000003,-54.6584566845553
3.7066666666667,-54.5280812895417
3.71333333333336,-54.403257458963
3.72000000000003,-54.284257398827
3.7266666666667,-54.1713389618028
3.73333333333337,-54.064745323714
3.74000000000003,-53.9647046944906
3.7466666666667,-53.8714300613603
3.75333333333337,-53.7851189620361
3.76000000000003,-53.7059532856556
3.7666666666667,-53.6340990992701
3.77333333333337,-53.5697064977403
3.78000000000003,-53.5129094749968
3.7866666666667,-53.4638258147376
3.79333333333337,-53.4225569987848
3.80000000000003,-53.3891881314886
3.8066666666667,-53.3637878787513
3.81333333333337,-53.3464084204519
3.82000000000003,-53.3370854152673
3.8266666666667,-53.3358379771182
3.83333333333337,-53.3426686627063
3.84000000000003,-53.3575634698565
3.8466666666667,-53.3804918466236
3.85333333333337,-53.4114067113765
3.86000000000003,-53.4502444843156
3.8666666666667,-53.4969251311243
3.87333333333337,-53.5513522196861
