"Small Bottom Face Disp"
"Time (sec)","Linear Displacement3 (mm)"
0,-37.9234505138248
0.00666666666666667,-38.1948439330586
0.0133333333333333,-38.4664327397586
0.02,-38.7375769424803
0.0266666666666667,-39.0075040867522
0.0333333333333333,-39.2755367314812
0.04,-39.5411433285225
0.0466666666666667,-39.8036722594422
0.0533333333333333,-40.0622166841384
0.06,-40.3161899824245
0.0666666666666667,-40.5649943397342
0.0733333333333333,-40.8078623292466
0.08,-41.0441674365107
0.0866666666666667,-41.2732801463427
0.0933333333333333,-41.4948302863501
0.1,-41.7080349766025
0.106666666666667,-41.912221757824
0.113333333333333,-42.1068416473763
0.12,-42.2913751121582
0.126666666666667,-42.465360516979
0.133333333333333,-42.6282423818023
0.14,-42.7795676990882
0.146666666666667,-42.9190523961523
0.153333333333333,-43.046189466461
0.16,-43.1605390428274
0.166666666666667,-43.2618298097629
0.173333333333333,-43.3497607092668
0.18,-43.4240575454093
0.186666666666667,-43.4845105263876
0.193333333333333,-43.5309495972517
0.2,-43.5632333167701
0.206666666666667,-43.5812476929139
0.213333333333333,-43.58493111118
0.22,-43.5742705257022
0.226666666666666,-43.5492751597854
0.233333333333333,-43.510014565405
0.24,-43.4565859852636
0.246666666666666,-43.3891520168023
0.253333333333333,-43.3079071938446
0.26,-43.2130044816733
0.266666666666666,-43.1047288075511
0.273333333333333,-42.9834166333798
0.28,-42.8494411518719
0.286666666666666,-42.7031690488987
0.293333333333333,-42.5450107936921
0.3,-42.3754124166052
0.306666666666666,-42.1946794951693
0.313333333333333,-42.0033138960812
0.32,-41.8019428059204
0.326666666666666,-41.5911220277118
0.333333333333333,-41.371463190979
0.34,-41.1436238307834
0.346666666666666,-40.9081876118981
0.353333333333333,-40.6657972983701
0.36,-40.4168154373938
0.366666666666666,-40.1621386653124
0.373333333333333,-39.9024759828526
0.38,-39.6385775025577
0.386666666666666,-39.3709625250828
0.393333333333333,-39.1003904928264
0.4,-38.8275948932726
0.406666666666666,-38.5532013848925
0.413333333333333,-38.2779751949643
0.419999999999999,-38.0026671153675
0.426666666666666,-37.7279699986787
0.433333333333333,-37.4545686340577
0.439999999999999,-37.1831385860945
0.446666666666666,-36.9142050023755
0.453333333333333,-36.6483999627142
0.459999999999999,-36.3865240100342
0.466666666666666,-36.1291638256666
0.473333333333333,-35.8768995086477
0.479999999999999,-35.6303704211692
0.486666666666666,-35.390104711001
0.493333333333333,-35.1566075755113
0.499999999999999,-34.9305761488489
0.506666666666666,-34.7124817316341
0.513333333333333,-34.502787310335
0.519999999999999,-34.3019497756925
0.526666666666666,-34.1104573068787
0.533333333333333,-33.9286764673464
0.54,-33.7570136080287
0.546666666666666,-33.5959638293765
0.553333333333333,-33.4457806861331
0.56,-33.306834740085
0.566666666666666,-33.1793637341125
0.573333333333333,-33.0636785590662
0.58,-32.9600893732905
0.586666666666667,-32.8687590739236
0.593333333333333,-32.7899059400799
0.6,-32.7236703693288
0.606666666666667,-32.6702283773159
0.613333333333333,-32.6297093430772
0.62,-32.6021951615986
0.626666666666667,-32.5877409991564
0.633333333333334,-32.5863877485775
0.64,-32.5981447823681
0.646666666666667,-32.6229882271262
0.653333333333334,-32.6609076478753
0.66,-32.7118140702626
0.666666666666667,-32.7756049145193
0.673333333333334,-32.852147044923
0.68,-32.9413083437779
0.686666666666667,-33.0429064332048
0.693333333333334,-33.1567567647664
0.700000000000001,-33.2826280448364
0.706666666666667,-33.4202310316391
0.713333333333334,-33.5692314044779
0.720000000000001,-33.7293567621452
0.726666666666667,-33.9002819493047
0.733333333333334,-34.0816382113083
0.740000000000001,-34.2730007728041
0.746666666666668,-34.4739829379629
0.753333333333334,-34.6841587399161
0.760000000000001,-34.9030046777943
0.766666666666668,-35.1300036128254
0.773333333333334,-35.3647526514619
0.780000000000001,-35.6066760283198
0.786666666666668,-35.8551614920846
0.793333333333335,-36.1097004362487
0.800000000000001,-36.3696865614663
0.806666666666668,-36.6344073092071
0.813333333333335,-36.9031957115682
0.820000000000001,-37.1753818442015
0.826666666666668,-37.4503653248416
0.833333333333335,-37.7274692762488
0.840000000000002,-38.0059735019085
0.846666666666668,-38.2851598584723
0.853333333333335,-38.5642775054837
0.860000000000002,-38.8425891668017
0.866666666666668,-39.1194207280565
0.873333333333335,-39.3939410041962
0.880000000000002,-39.665684107969
0.886666666666668,-39.9336875047623
0.893333333333335,-40.1971911863876
0.900000000000002,-40.4554764624943
0.906666666666669,-40.7078562641933
0.913333333333335,-40.9536199396875
0.920000000000002,-41.1920846905332
0.926666666666669,-41.4225712096799
0.933333333333335,-41.6444180744596
0.940000000000002,-41.8569785357005
0.946666666666669,-42.0595954886322
0.953333333333336,-42.2517825672707
0.960000000000002,-42.4329924418195
0.966666666666669,-42.6025432741056
0.973333333333336,-42.7599529600216
0.980000000000002,-42.9047781712093
0.986666666666669,-43.0365798124469
0.993333333333336,-43.1549624440134
1,-43.2595634948945
1.00666666666667,-43.3500600696118
1.01333333333334,-43.4261701371031
1.02,-43.4876618296029
1.02666666666667,-43.534333051686
1.03333333333334,-43.5660254859014
1.04,-43.5826468514975
1.04666666666667,-43.5841298907708
1.05333333333334,-43.5704613645676
1.06,-43.5416793242619
1.06666666666667,-43.4978498216966
1.07333333333334,-43.4391191311609
1.08,-43.3656053572706
1.08666666666667,-43.2775248365269
1.09333333333333,-43.1751645951688
1.1,-43.0588401098722
1.10666666666667,-42.9288839351465
1.11333333333333,-42.7856769141196
1.12,-42.6296387105696
1.12666666666667,-42.4612222713649
1.13333333333333,-42.2809205685336
1.14,-42.0892629819238
1.14666666666667,-41.8867972478876
1.15333333333333,-41.6740920998378
1.16,-41.4518393090138
1.16666666666667,-41.2206185523836
1.17333333333333,-40.9810800856666
1.18,-40.7339477981523
1.18666666666667,-40.4799244780434
1.19333333333333,-40.219715308073
1.2,-39.9540505189242
1.20666666666667,-39.6836916314429
1.21333333333333,-39.4093343887127
1.22,-39.1318433750967
1.22666666666667,-38.8519652829879
1.23333333333333,-38.570112161537
1.24,-38.2873630244439
1.24666666666667,-38.0044901529528
1.25333333333333,-37.7222568420762
1.26,-37.4413780115531
1.26666666666667,-37.1625295152571
1.27333333333333,-36.886476728732
1.28,-36.6139074819401
1.28666666666667,-36.3454983206712
1.29333333333333,-36.0819515293405
1.3,-35.8239470569928
1.30666666666667,-35.5720948282055
1.31333333333333,-35.3270095660004
1.32,-35.0893390598227
1.32666666666667,-34.8596355970645
1.33333333333333,-34.6384511515666
1.34,-34.4263058080056
1.34666666666667,-34.2237076247583
1.35333333333333,-34.0311345814125
1.36,-33.8490386755216
1.36666666666667,-33.6778353653265
1.37333333333333,-33.5179663444246
1.38,-33.3697873340178
1.38666666666667,-33.233499489051
1.39333333333333,-33.1095207458438
1.4,-32.9981676489435
1.40666666666666,-32.8996988652518
1.41333333333333,-32.8143245717086
1.42,-32.7422412306892
1.42666666666666,-32.6835894699109
1.43333333333333,-32.6385155125116
1.44,-32.6071323323305
1.44666666666666,-32.5895119675673
1.45333333333333,-32.5857045935692
1.46,-32.5957272094254
1.46666666666666,-32.6195646905716
1.47333333333333,-32.6571735579972
1.48,-32.708479990258
1.48666666666666,-32.773381044531
1.49333333333333,-32.8517430822391
1.5,-32.9434021680854
1.50666666666666,-33.0481546162465
1.51333333333333,-33.1658081199601
1.52,-33.2960849200156
1.52666666666666,-33.4386913343666
1.53333333333333,-33.5933128021024
1.54,-33.7596351619482
1.54666666666666,-33.9372151706774
1.55333333333333,-34.1256526532016
1.56,-34.3246666315545
1.56666666666666,-34.5337750867245
1.57333333333333,-34.7523994824918
1.58,-34.9799951512133
1.58666666666666,-35.2159883498515
1.59333333333333,-35.4598670547316
1.6,-35.7110454698168
1.60666666666666,-35.9688952836313
1.61333333333333,-36.2327768121445
1.62,-36.5020233971142
1.62666666666666,-36.7759297845299
1.63333333333333,-37.053862165296
1.64,-37.3350384280328
1.64666666666666,-37.6187075421308
1.65333333333333,-37.9040951071414
1.66,-38.1905409772632
1.66666666666666,-38.4771832189663
1.67333333333333,-38.7632341509541
1.68,-39.0479111513433
1.68666666666666,-39.3304233028577
1.69333333333333,-39.6099386020326
1.7,-39.8857663306763
1.70666666666666,-40.1570255472883
1.71333333333333,-40.4229314748191
1.72,-40.6827108271716
1.72666666666666,-40.9356042045535
1.73333333333333,-41.1808585993143
1.73999999999999,-41.41770961
1.74666666666666,-41.6455311528464
1.75333333333333,-41.8635524046021
1.75999999999999,-42.0711119159021
1.76666666666666,-42.2675698597291
1.77333333333333,-42.4523231448486
1.77999999999999,-42.6247940556487
1.78666666666666,-42.7844393982635
1.79333333333333,-42.930753007626
1.79999999999999,-43.0632581671278
1.80666666666666,-43.1815683356101
1.81333333333333,-43.2852640110453
1.81999999999999,-43.3740145774624
1.82666666666666,-43.4475283817067
1.83333333333333,-43.5055665635922
1.83999999999999,-43.5479348557009
1.84666666666666,-43.5744882601294
1.85333333333333,-43.5851320308911
1.85999999999999,-43.5798237269966
1.86666666666666,-43.5585643653794
1.87333333333333,-43.5214156094512
1.87999999999999,-43.4684845292295
1.88666666666666,-43.3999348799344
1.89333333333333,-43.3159732631166
1.89999999999999,-43.2168572149754
1.90666666666666,-43.1028924426971
1.91333333333333,-42.9744313436647
1.91999999999999,-42.8318716054497
1.92666666666666,-42.6756549744619
1.93333333333333,-42.5062870074018
1.93999999999999,-42.3242139903267
1.94666666666666,-42.130072753285
1.95333333333333,-41.9244303029253
1.95999999999999,-41.7079387767396
1.96666666666666,-41.4812462485911
1.97333333333333,-41.2450398605289
1.97999999999999,-41.0000338901609
1.98666666666666,-40.7469657980949
1.99333333333333,-40.4865932812837
1.99999999999999,-40.2196914102086
2.00666666666666,-39.9470497705861
2.01333333333333,-39.6694696955366
2.01999999999999,-39.3877617623768
2.02666666666666,-39.1027434899427
2.03333333333333,-38.8152729877388
2.03999999999999,-38.5260410663118
2.04666666666666,-38.2360027381795
2.05333333333333,-37.9459144874099
2.05999999999999,-37.6566261890733
2.06666666666666,-37.3689175824422
2.07333333333333,-37.0835743436986
2.07999999999999,-36.8013723572733
2.08666666666666,-36.5230729009419
2.09333333333333,-36.2494203655824
2.09999999999999,-35.981140436857
2.10666666666666,-35.7189384594774
2.11333333333333,-35.4634979540305
2.11999999999999,-35.2154792532865
2.12666666666666,-34.9755182462141
2.13333333333333,-34.7442252288879
2.14,-34.5221838700109
2.14666666666666,-34.3099502927844
2.15333333333333,-34.1080522711905
2.16,-33.9169885302296
2.16666666666666,-33.7372281321569
2.17333333333333,-33.56920993442
2.18,-33.4133421051414
2.18666666666666,-33.2700249064436
2.19333333333333,-33.1395262390054
2.2,-33.02224631546
2.20666666666666,-32.9184226110246
2.21333333333333,-32.8283217045675
2.22,-32.7521712368711
2.22666666666666,-32.6901053495845
2.23333333333333,-32.6423237828588
2.24,-32.6089400918497
2.24666666666666,-32.5900309036572
2.25333333333333,-32.5856406563756
2.26,-32.5957935796446
2.26666666666666,-32.6204799119045
2.27333333333333,-32.6596484007163
2.28,-32.7132065865192
2.28666666666667,-32.7810785250991
2.29333333333333,-32.8630736297611
2.3,-32.9590358483424
2.30666666666667,-33.0687439341994
2.31333333333333,-33.1919403228516
2.32,-33.3283509164261
2.32666666666667,-33.4776615160819
2.33333333333333,-33.6395245158509
2.34,-33.8135594145183
2.34666666666667,-33.9993530778246
2.35333333333333,-34.1964600549694
2.36,-34.4044029770263
2.36666666666667,-34.6226730382644
2.37333333333333,-34.8507305686441
2.38,-35.0880057059739
2.38666666666667,-35.3338991729188
2.39333333333333,-35.5877831689323
2.4,-35.8490023828635
2.40666666666667,-36.1168751303491
2.41333333333333,-36.3906946247213
2.42,-36.6697303814944
2.42666666666667,-36.9532297637195
2.43333333333334,-37.2404196667535
2.44,-37.5305083444051
2.44666666666667,-37.8226873752734
2.45333333333334,-38.1161337687674
2.46,-38.4100122045223
2.46666666666667,-38.7034774030349
2.47333333333334,-38.9956766184347
2.48,-39.2857522483437
2.48666666666667,-39.5728445485909
2.49333333333334,-39.8560944431447
2.5,-40.1346464198958
2.50666666666667,-40.407651491483
2.51333333333334,-40.6742702158781
2.52,-40.9336757581121
2.52666666666667,-41.1850569740902
2.53333333333334,-41.4276215031243
2.54,-41.6605988546204
2.54666666666667,-41.8832434652754
2.55333333333334,-42.0948377172709
2.56,-42.2946948909956
2.56666666666667,-42.482162043339
2.57333333333334,-42.6566227826734
2.58000000000001,-42.8174999272804
2.58666666666667,-42.9642580206822
2.59333333333334,-43.0964052134812
2.60000000000001,-43.2134953442018
2.60666666666667,-43.3151311633029
2.61333333333334,-43.4009653330784
2.62000000000001,-43.4707020449558
2.62666666666667,-43.524098433007
2.63333333333334,-43.560965744326
2.64000000000001,-43.5811702597427
2.64666666666667,-43.584633958641
2.65333333333334,-43.5713349291357
2.66000000000001,-43.5413075267031
2.66666666666667,-43.4946422866431
2.67333333333334,-43.4314855956135
2.68000000000001,-43.3520391230308
2.68666666666667,-43.2565590057157
2.69333333333334,-43.1453547661981
2.70000000000001,-43.0187879271936
2.70666666666667,-42.8772702570728
2.71333333333334,-42.7212615541103
2.72000000000001,-42.5512688339428
2.72666666666668,-42.367845450733
2.73333333333334,-42.1715854936052
2.74000000000001,-41.9631231650374
2.74666666666668,-41.7431300195815
2.75333333333334,-41.5123120477886
2.76000000000001,-41.2714067097324
2.76666666666668,-41.0211799704827
2.77333333333334,-40.7624233515974
2.78000000000001,-40.495950966238
2.78666666666668,-40.222596452058
2.79333333333334,-39.9432096469099
2.80000000000001,-39.6586527707441
2.80666666666668,-39.3697958231944
2.81333333333334,-39.0775174389889
2.82000000000001,-38.7827033996797
2.82666666666668,-38.4862367918492
2.83333333333334,-38.1889994668823
2.84000000000001,-37.8918684100787
2.84666666666668,-37.595712704242
2.85333333333335,-37.3013910343255
2.86000000000001,-37.00974953933
2.86666666666668,-36.7216197004184
2.87333333333335,-36.4378158590386
2.88000000000001,-36.1591318948722
2.88666666666668,-35.8863372709253
2.89333333333335,-35.6201850753793
2.90000000000001,-35.361401857991
2.90666666666668,-35.1106872258531
2.91333333333335,-34.868713716953
2.92000000000001,-34.6361247956292
2.92666666666668,-34.4135338867566
2.93333333333335,-34.2015238457565
2.94000000000001,-34.0006462214148
2.94666666666668,-33.8114197274516
2.95333333333335,-33.6343275290962
2.96000000000001,-33.4698214994584
2.96666666666668,-33.3183213826023
2.97333333333335,-33.1802101318677
2.98000000000001,-33.0558361898019
2.98666666666668,-32.9455124188443
2.99333333333335,-32.8495160663994
3.00000000000002,-32.7680888409447
3.00666666666668,-32.7014365414793
3.01333333333335,-32.6497282741245
3.02000000000002,-32.6130969477043
3.02666666666668,-32.5916407740657
3.03333333333335,-32.5854204005902
3.04000000000002,-32.5944599896287
3.04666666666668,-32.6187470201204
3.05333333333335,-32.6582323377299
3.06000000000002,-32.7128299143713
3.06666666666668,-32.7824167621921
3.07333333333335,-32.8668348104735
3.08000000000002,-32.9658884003673
3.08666666666668,-33.0793437660657
3.09333333333335,-33.2069310650333
3.10000000000002,-33.3483435969263
3.10666666666668,-33.5032384904996
3.11333333333335,-33.6712360958156
3.12000000000002,-33.8519200349963
3.12666666666668,-34.0448420798022
3.13333333333335,-34.2495169601819
3.14000000000002,-34.465420485102
3.14666666666669,-34.6919962676638
3.15333333333335,-34.9286540415449
3.16000000000002,-35.1747712692241
3.16666666666669,-35.4296922866691
3.17333333333335,-35.6927307021826
3.18000000000002,-35.9631787779168
3.18666666666669,-36.2402882822048
3.19333333333335,-36.5232876467508
3.20000000000002,-36.8113797020495
3.20666666666669,-37.1037450743126
3.21333333333335,-37.3995423679759
3.22000000000002,-37.6979095673203
3.22666666666669,-37.9979766903385
3.23333333333335,-38.2988505231341
3.24000000000002,-38.5996244175364
3.24666666666669,-38.8993840740712
3.25333333333335,-39.1972101643084
3.26000000000002,-39.4921796493075
3.26666666666669,-39.7833679919999
3.27333333333335,-40.0698637799296
3.28000000000002,-40.3507505712223
3.28666666666669,-40.6251225011775
3.29333333333336,-40.8920879306738
3.30000000000002,-41.150773451932
3.30666666666669,-41.4003246119585
3.31333333333336,-41.6399114671343
3.32000000000002,-41.8687393761685
3.32666666666669,-42.0860292827525
3.33333333333336,-42.2910419676799
3.34000000000002,-42.4830753504404
3.34666666666669,-42.6614680521249
3.35333333333336,-42.8256005331062
3.36000000000002,-42.9749048761695
3.36666666666669,-43.1088553163231
3.37333333333336,-43.2269770025125
3.38000000000002,-43.3288494534644
3.38666666666669,-43.4141081584534
3.39333333333336,-43.4824449724339
3.40000000000002,-43.5336118476848
3.40666666666669,-43.5674188089632
3.41333333333336,-43.5837356079139
3.42000000000002,-43.5824944358137
3.42666666666669,-43.5636893916673
3.43333333333336,-43.5273766932967
3.44000000000003,-43.4736730031332
3.44666666666669,-43.4027554702094
3.45333333333336,-43.3148637580566
3.46000000000003,-43.210296631783
3.46666666666669,-43.0894104024677
3.47333333333336,-42.9526191298378
3.48000000000003,-42.8003856707348
3.48666666666669,-42.6332295759028
3.49333333333336,-42.4517227345623
3.50000000000003,-42.2564836401687
3.50666666666669,-42.048175023314
3.51333333333336,-41.8275033090541
3.52000000000003,-41.5952015301185
3.52666666666669,-41.3520548387389
3.53333333333336,-41.0988767837134
3.54000000000003,-40.8365086605392
3.54666666666669,-40.5658187877014
3.55333333333336,-40.2876913761284
3.56000000000003,-40.0030282776633
3.56666666666669,-39.7127582797167
3.57333333333336,-39.417816943983
3.58000000000003,-39.1191463276605
3.5866666666667,-38.8176953119448
3.59333333333336,-38.5143965673793
3.60000000000003,-38.2102055905183
3.6066666666667,-37.906065206134
3.61333333333336,-37.6029077933023
3.62000000000003,-37.3016574299904
3.6266666666667,-37.0032096116288
3.63333333333336,-36.7084584753491
3.64000000000003,-36.418280293143
3.6466666666667,-36.1335261868911
3.65333333333336,-35.8550249702874
3.66000000000003,-35.5835708477598
3.6666666666667,-35.3199362579031
3.67333333333336,-35.0648724636484
3.68000000000003,-34.8190954006072
3.6866666666667,-34.5832892552743
3.69333333333336,-34.3580994085547
3.70000000000003,-34.144138506412
3.7066666666667,-33.9419934797119
3.71333333333336,-33.7522104498938
3.72000000000003,-33.5752987889418
3.7266666666667,-33.4117262284356
3.73333333333337,-33.2619245832974
3.74000000000003,-33.1262939553987
3.7466666666667,-33.0051920471289
3.75333333333337,-32.8989376843074
3.76000000000003,-32.8078070335266
3.7666666666667,-32.7320404536255
3.77333333333337,-32.6718406622006
3.78000000000003,-32.6273685377379
3.7866666666667,-32.5987450805557
3.79333333333337,-32.5860504532579
3.80000000000003,-32.589327059126
3.8066666666667,-32.608576151033
3.81333333333337,-32.6437583571429
3.82000000000003,-32.6947934641578
3.8266666666667,-32.761565616562
3.83333333333337,-32.8439133244926
3.84000000000003,-32.9416355227924
3.8466666666667,-33.0544909806452
3.85333333333337,-33.1821999605263
3.86000000000003,-33.3244464455527
3.8666666666667,-33.4808651837027
