"Small Bottom Face Disp"
"Time (sec)","Linear Displacement3 (mm)"
0,-37.9234505138248
0.00666666666666667,-38.1948186480623
0.0133333333333333,-38.4663114826992
0.02,-38.7372610165644
0.0266666666666667,-39.0069949335675
0.0333333333333333,-39.2748383755064
0.04,-39.5401157749951
0.0466666666666667,-39.8021527420889
0.0533333333333333,-40.0602779975266
0.06,-40.3138253449027
0.0666666666666667,-40.5621356735231
0.0733333333333333,-40.804558983204
0.08,-41.0404564218386
0.0866666666666667,-41.2692023261916
0.0933333333333333,-41.4901862560937
0.1,-41.7028150119894
0.106666666666667,-41.9065146256579
0.113333333333333,-42.100732313868
0.12,-42.28493838475
0.126666666666667,-42.4586280867706
0.133333333333333,-42.6213233903744
0.14,-42.7725746926156
0.146666666666667,-42.911962435428
0.153333333333333,-43.0390986285885
0.16,-43.1536282688888
0.166666666666667,-43.2552306475682
0.173333333333333,-43.343620538642
0.18,-43.4185492614046
0.186666666666667,-43.4798056110774
0.193333333333333,-43.5272166522995
0.2,-43.5606483709351
0.206666666666667,-43.5800061804676
0.213333333333333,-43.585235280081
0.22,-43.5763208623751
0.226666666666666,-43.5532881695228
0.233333333333333,-43.5162023975466
0.24,-43.4651684492654
0.246666666666666,-43.400330537326
0.253333333333333,-43.3218716395981
0.26,-43.230012810049
0.266666666666666,-43.1250123490378
0.273333333333333,-43.0071648377626
0.28,-42.8768000423543
0.286666666666666,-42.7342816938321
0.293333333333333,-42.5800061508156
0.3,-42.4144009525127
0.306666666666666,-42.237923270081
0.313333333333333,-42.0510582649695
0.32,-41.8543173633016
0.326666666666666,-41.6482364557401
0.333333333333333,-41.4333740325879
0.34,-41.2103092641127
0.346666666666666,-40.9796400362456
0.353333333333333,-40.7419809518823
0.36,-40.4979613080204
0.366666666666666,-40.2482230588842
0.373333333333333,-39.9934187750347
0.38,-39.734209608225
0.386666666666666,-39.4712632714528
0.393333333333333,-39.2052520432779
0.4,-38.9368508050237
0.406666666666666,-38.6667351189669
0.413333333333333,-38.3955793550516
0.419999999999999,-38.1240548730377
0.426666666666666,-37.8528282663341
0.433333333333333,-37.5825596730593
0.439999999999999,-37.3139011591472
0.446666666666666,-37.047495177562
0.453333333333333,-36.7839731069256
0.459999999999999,-36.5239538720988
0.466666666666666,-36.2680426484939
0.473333333333333,-36.0168296511562
0.479999999999999,-35.7708890089249
0.486666666666666,-35.5307777232923
0.493333333333333,-35.2970347109197
0.499999999999999,-35.0701799281574
0.506666666666666,-34.8507135753437
0.513333333333333,-34.6391153781497
0.519999999999999,-34.4358439427749
0.526666666666666,-34.2413361814052
0.533333333333333,-34.056006804011
0.54,-33.8802478722909
0.546666666666666,-33.7144284113675
0.553333333333333,-33.5588940746956
0.56,-33.4139668575753
0.566666666666666,-33.2799448546441
0.573333333333333,-33.1571020567751
0.58,-33.0456881829136
0.586666666666667,-32.9459285425464
0.593333333333333,-32.8580239247135
0.6,-32.7821505097323
0.606666666666667,-32.7184598001106
0.613333333333333,-32.6670785674711
0.62,-32.6281088126888
0.626666666666667,-32.6016277368526
0.633333333333334,-32.5876877211008
0.64,-32.5863163138335
0.646666666666667,-32.5975162242786
0.653333333333334,-32.6212653218701
0.66,-32.6575166413845
0.666666666666667,-32.7061983942722
0.673333333333334,-32.7672139871016
0.68,-32.8404420485103
0.686666666666667,-32.9257364665179
0.693333333333334,-33.022926438495
0.700000000000001,-33.1318165364987
0.706666666666667,-33.2521867910741
0.713333333333334,-33.3837927969711
0.720000000000001,-33.5263658445454
0.726666666666667,-33.6796130808796
0.733333333333334,-33.8432177048872
0.740000000000001,-34.0168392008378
0.746666666666668,-34.2001136148576
0.753333333333334,-34.3926538790239
0.760000000000001,-34.5940501876725
0.766666666666668,-34.8038704304748
0.773333333333334,-35.021660686719
0.780000000000001,-35.2469457850362
0.786666666666668,-35.4792299325594
0.793333333333335,-35.7179974171838
0.800000000000001,-35.9627133862104
0.806666666666668,-36.2128247042166
0.813333333333335,-36.4677608924908
0.820000000000001,-36.7269351518143
0.826666666666668,-36.9897454697695
0.833333333333335,-37.255575813102
0.840000000000002,-37.5237974049799
0.846666666666668,-37.7937700862744
0.853333333333335,-38.0648437592456
0.860000000000002,-38.3363599112605
0.866666666666668,-38.6076532154064
0.873333333333335,-38.8780532040994
0.880000000000002,-39.1468860110354
0.886666666666668,-39.4134761760946
0.893333333333335,-39.6771485071033
0.900000000000002,-39.9372299916809
0.906666666666669,-40.19305175177
0.913333333333335,-40.4439510328637
0.920000000000002,-40.6892732194194
0.926666666666669,-40.9283738674817
0.933333333333335,-41.1606207451426
0.940000000000002,-41.3853958711372
0.946666666666669,-41.6020975416249
0.953333333333336,-41.8101423350302
0.960000000000002,-42.0089670847207
0.966666666666669,-42.1980308092861
0.973333333333336,-42.3768165902448
0.980000000000002,-42.5448333871463
0.986666666666669,-42.7016177802605
0.993333333333336,-42.8467356313362
1,-42.9797836532816
1.00666666666667,-43.1003908800524
1.01333333333334,-43.2082200285368
1.02,-43.3029687447843
1.02666666666667,-43.3843707275444
1.03333333333334,-43.4521967227478
1.04,-43.5062553832749
1.04666666666667,-43.5463939891097
1.05333333333334,-43.5724990237642
1.06,-43.584496603674
1.06666666666667,-43.5823527581032
1.07333333333334,-43.5660735579554
1.08,-43.5357050927477
1.08666666666667,-43.4913332958842
1.09333333333333,-43.4330836192281
1.1,-43.3611205588408
1.10666666666667,-43.2756470346045
1.11333333333333,-43.1769036272772
1.12,-43.0651676773379
1.12666666666667,-42.9407522507551
1.13333333333333,-42.8040049775546
1.14,-42.6553067697614
1.14666666666667,-42.4950704259419
1.15333333333333,-42.3237391301755
1.16,-42.1417848538258
1.16666666666667,-41.9497066689626
1.17333333333333,-41.7480289827034
1.18,-41.5372997020865
1.18666666666667,-41.3180883393617
1.19333333333333,-41.0909840677802
1.2,-40.8565937380856
1.20666666666667,-40.6155398659462
1.21333333333333,-40.3684586005291
1.22,-40.1159976842988
1.22666666666667,-39.8588144139212
1.23333333333333,-39.5975736118845
1.24,-39.3329456180946
1.24666666666667,-39.0656043102889
1.25333333333333,-38.796225161627
1.26,-38.525483343271
1.26666666666667,-38.2540518791734
1.27333333333333,-37.9825998596427
1.28,-37.7117907195722
1.28666666666667,-37.4422805865005
1.29333333333333,-37.174716702929
1.3,-36.909735926567
1.30666666666667,-36.6479633114087
1.31333333333333,-36.3900107717841
1.32,-36.1364758307746
1.32666666666667,-35.8879404536475
1.33333333333333,-35.6449699662559
1.34,-35.4081120576732
1.34666666666667,-35.1778958656971
1.35333333333333,-34.9548311432653
1.36,-34.7394075032858
1.36666666666667,-34.532093738901
1.37333333333333,-34.3333372157783
1.38,-34.1435633326548
1.38666666666667,-33.9631750460673
1.39333333333333,-33.7925524549568
1.4,-33.6320524406742
1.40666666666666,-33.4820083578007
1.41333333333333,-33.3427297711601
1.42,-33.2145022344165
1.42666666666666,-33.0975871057324
1.43333333333333,-32.9922213960976
1.44,-32.8986176461281
1.44666666666666,-32.8169638273762
1.45333333333333,-32.7474232644756
1.46,-32.6901345747737
1.46666666666666,-32.6452116224667
1.47333333333333,-32.6127434846504
1.48,-32.5927944271221
1.48666666666666,-32.5854038882185
1.49333333333333,-32.5905864694373
1.5,-32.6083319320695
1.50666666666666,-32.638605199555
1.51333333333333,-32.6813463657627
1.52,-32.7364707098846
1.52666666666666,-32.8038687191106
1.53333333333333,-32.8834061207212
1.54,-32.9749239256835
1.54666666666666,-33.0782384862671
1.55333333333333,-33.1931415705945
1.56,-33.3194004574148
1.56666666666666,-33.45675805472
1.57333333333333,-33.6049330461184
1.58,-33.7636200691245
1.58666666666666,-33.9324899297285
1.59333333333333,-34.1111898577475
1.6,-34.299343807557
1.60666666666666,-34.4965528088271
1.61333333333333,-34.7023953718587
1.62,-34.9164279520205
1.62666666666666,-35.138185477628
1.63333333333333,-35.3671819453832
1.64,-35.6029110872019
1.64666666666666,-35.8448471119056
1.65333333333333,-36.092445524838
1.66,-36.3451440279926
1.66666666666666,-36.6023635027064
1.67333333333333,-36.863509076394
1.68,-37.1279712741667
1.68666666666666,-37.3951272555111
1.69333333333333,-37.6643421354999
1.7,-37.9349703892755
1.70666666666666,-38.2063573377962
1.71333333333333,-38.477840712076
1.72,-38.7487522923802
1.72666666666666,-39.0184196180858
1.73333333333333,-39.2861677631641
1.73999999999999,-39.5513211715263
1.74666666666666,-39.8132055457778
1.75333333333333,-40.0711497822756
1.75999999999999,-40.3244879447753
1.76666666666666,-40.5725612684005
1.77333333333333,-40.8147201851742
1.77999999999999,-41.050326361918
1.78666666666666,-41.2787547409692
1.79333333333333,-41.4993955738724
1.79999999999999,-41.7116564379955
1.80666666666666,-41.9149642258846
1.81333333333333,-42.1087670971161
1.81999999999999,-42.2925363824351
1.82666666666666,-42.4657684300693
1.83333333333333,-42.6279863842933
1.83999999999999,-42.7787418865776
1.84666666666666,-42.9176166899886
1.85333333333333,-43.0442241779095
1.85999999999999,-43.1582107786228
1.86666666666666,-43.2592572678267
1.87333333333333,-43.3470799517491
1.87999999999999,-43.4214317241655
1.88666666666666,-43.4821029913211
1.89333333333333,-43.5289224594874
1.89999999999999,-43.5617577806611
1.90666666666666,-43.5805160527085
1.91333333333333,-43.5851441710934
1.91999999999999,-43.57562903017
1.92666666666666,-43.5519975728872
1.93333333333333,-43.5143166886172
1.93999999999999,-43.4626929596966
1.94666666666666,-43.3972722581325
1.95333333333333,-43.3182391947871
1.95999999999999,-43.2258164241926
1.96666666666666,-43.1202638089711
1.97333333333333,-43.0018774486261
1.97999999999999,-42.8709885782293
1.98666666666666,-42.72796234325
1.99333333333333,-42.5731964574462
1.99999999999999,-42.4071197513673
2.00666666666666,-42.2301906195824
2.01333333333333,-42.0428953752687
2.01999999999999,-41.8457465212324
2.02666666666666,-41.6392809468218
2.03333333333333,-41.4240580604959
2.03999999999999,-41.2006578680452
2.04666666666666,-40.9696790066202
2.05333333333333,-40.7317367447985
2.05999999999999,-40.4874609589201
2.06666666666666,-40.2374940958405
2.07333333333333,-39.9824891320874
2.07999999999999,-39.7231075391728
2.08666666666666,-39.4600172644946
2.09333333333333,-39.1938907368795
2.09999999999999,-38.9254029053652
2.10666666666666,-38.6552293193036
2.11333333333333,-38.3840442572934
2.11999999999999,-38.1125189118282
2.12666666666666,-37.841319635878
2.13333333333333,-37.5711062569192
2.14,-37.3025304631969
2.14666666666666,-37.0362342662519
2.15333333333333,-36.772848542985
2.16,-36.5129916597652
2.16666666666666,-36.2572681803282
2.17333333333333,-36.0062676584721
2.18,-35.7605635158299
2.18666666666666,-35.5207120043089
2.19333333333333,-35.2872512521297
2.2,-35.0607003917845
2.20666666666666,-34.8415587676697
2.21333333333333,-34.6303052206363
2.22,-34.4273974462472
2.22666666666666,-34.233271423136
2.23333333333333,-34.0483409075325
2.24,-33.8729969897516
2.24666666666666,-33.7076077082427
2.25333333333333,-33.5525177166581
2.26,-33.408047999328
2.26666666666666,-33.2744956305204
2.27333333333333,-33.1521335729131
2.28,-33.0412105108188
2.28666666666667,-32.9419507138634
2.29333333333333,-32.8545539270391
2.3,-32.7791952833127
2.30666666666667,-32.7160252352819
2.31333333333333,-32.6651695027149
2.32,-32.6267290331931
2.32666666666667,-32.600779973487
2.33333333333333,-32.5873736497318
2.34,-32.5865365549272
2.34666666666667,-32.5982703427582
2.35333333333333,-32.6225518272157
2.36,-32.6593329879837
2.36666666666667,-32.7085409820511
2.37333333333333,-32.7700781624849
2.38,-32.8438221057818
2.38666666666667,-32.9296256496685
2.39333333333333,-33.0273169436657
2.4,-33.1366995151427
2.40666666666667,-33.2575523539774
2.41333333333333,-33.3896300192863
2.42,-33.5326627720041
2.42666666666667,-33.6863567373603
2.43333333333334,-33.8503941015256
2.44,-34.0244333468688
2.44666666666667,-34.2081095303865
2.45333333333334,-34.4010346099219
2.46,-34.6027978227923
2.46666666666667,-34.8129661213788
2.47333333333334,-35.0310846701027
2.48,-35.2566774080235
2.48666666666667,-35.4892476810321
2.49333333333334,-35.7282789472925
2.5,-35.9732355591979
2.50666666666667,-36.2235636246635
2.51333333333334,-36.4786919500702
2.52,-36.7380330666191
2.52666666666667,-37.0009843412475
2.53333333333334,-37.2669291726072
2.54,-37.5352382719166
2.54666666666667,-37.8052710277815
2.55333333333334,-38.0763769533351
2.56,-38.347897213293
2.56666666666667,-38.6191662277526
2.57333333333334,-38.8895133488063
2.58000000000001,-39.1582646052818
2.58666666666667,-39.4247445101915
2.59333333333334,-39.6882779247656
2.60000000000001,-39.9481919722668
2.60666666666667,-40.2038179941619
2.61333333333334,-40.4544935406383
2.62000000000001,-40.6995643869344
2.62666666666667,-40.9383865664892
2.63333333333334,-41.1703284115224
2.64000000000001,-41.3947725913322
2.64666666666667,-41.611118138351
2.65333333333334,-41.8187824518278
2.66000000000001,-42.0172032689128
2.66666666666667,-42.2058405929085
2.67333333333334,-42.3841785685187
2.68000000000001,-42.5517272940722
2.68666666666667,-42.7080245609213
2.69333333333334,-42.8526375105135
2.70000000000001,-42.9851642000056
2.70666666666667,-43.1052350677258
2.71333333333334,-43.2125142902953
2.72000000000001,-43.3067010237824
2.72666666666668,-43.3875305218818
2.73333333333334,-43.4547751247816
2.74000000000001,-43.5082451130929
2.74666666666668,-43.5477894219746
2.75333333333334,-43.5732962113712
2.76000000000001,-43.5846932891003
2.76666666666668,-43.5819483843639
2.77333333333334,-43.5650692701156
2.78000000000001,-43.5341037335804
2.78666666666668,-43.4891393950969
2.79333333333334,-43.4303033763222
2.80000000000001,-43.3577618197
2.80666666666668,-43.2717192619471
2.81333333333334,-43.1724178651419
2.82000000000001,-43.0601365098042
2.82666666666668,-42.9351897551343
2.83333333333334,-42.7979266723167
2.84000000000001,-42.6487295574913
2.84666666666668,-42.4880125316469
2.85333333333335,-42.3162200352882
2.86000000000001,-42.1338252262696
2.86666666666668,-41.9413282896659
2.87333333333335,-41.7392546689634
2.88000000000001,-41.5281532281994
2.88666666666668,-41.3085943549424
2.89333333333335,-41.0811680142047
2.90000000000001,-40.8464817634895
2.90666666666668,-40.6051587392155
2.91333333333335,-40.3578356247141
2.92000000000001,-40.1051606098753
2.92666666666668,-39.8477913523142
2.93333333333335,-39.5863929496544
2.94000000000001,-39.321635932172
2.94666666666668,-39.0541942846224
2.95333333333335,-38.784743505588
2.96000000000001,-38.5139587121341
2.96666666666668,-38.2425127969661
2.97333333333335,-37.9710746446277
2.98000000000001,-37.7003074125971
2.98666666666668,-37.4308668824181
2.99333333333335,-37.1633998852602
3.00000000000002,-36.8985428055442
3.00666666666668,-36.636920165507
3.01333333333335,-36.3791432928144
3.02000000000002,-36.1258090725812
3.02666666666668,-35.8774987844224
3.03333333333335,-35.6347770244512
3.04000000000002,-35.398190711468
3.04666666666668,-35.1682681759456
3.05333333333335,-34.9455183298316
3.06000000000002,-34.7304299146484
3.06666666666668,-34.5234708248894
3.07333333333335,-34.3250875032892
3.08000000000002,-34.1357044041807
3.08666666666668,-33.9557235208579
3.09333333333335,-33.7855239726274
3.10000000000002,-33.6254616470659
3.10666666666668,-33.4758688928988
3.11333333333335,-33.3370542588724
3.12000000000002,-33.2093022740175
3.12666666666668,-33.0928732647845
3.13333333333335,-32.9880032046649
3.14000000000002,-32.894903592112
3.14666666666669,-32.8137613528076
3.15333333333335,-32.7447387626165
3.16000000000002,-32.687973387893
3.16666666666669,-32.643578040172
3.17333333333335,-32.6116407426747
3.18000000000002,-32.5922247064846
3.18666666666669,-32.5853683146949
3.19333333333335,-32.5910851133011
3.20000000000002,-32.6093638080644
3.20666666666669,-32.64016826714
3.21333333333335,-32.683437529593
3.22000000000002,-32.739085820609
3.22666666666669,-32.807002574531
3.23333333333335,-32.8870524673943
3.24000000000002,-32.9790754610649
3.24666666666669,-33.0828868615125
3.25333333333335,-33.1982773941511
3.26000000000002,-33.3250132995498
3.26666666666669,-33.4628364531471
3.27333333333335,-33.6114645128945
3.28000000000002,-33.7705910989978
3.28666666666669,-33.9398860101272
3.29333333333336,-34.1189954806028
3.30000000000002,-34.3075424831573
3.30666666666669,-34.5051270818985
3.31333333333336,-34.7113268400667
3.32000000000002,-34.9256972870808
3.32666666666669,-35.1477724492056
3.33333333333336,-35.3770654479497
3.34000000000002,-35.6130691700061
3.34666666666669,-35.855257012196
3.35333333333336,-36.1030837044577
3.36000000000002,-36.3559862134442
3.36666666666669,-36.6133847287633
3.37333333333336,-36.8746837333053
3.38000000000002,-37.139273158478
3.38666666666669,-37.4065296244935
3.39333333333336,-37.6758177651479
3.40000000000002,-37.9464916358047
3.40666666666669,-38.2178962025378
3.41333333333336,-38.4893689096337
3.42000000000002,-38.760241321883
3.42666666666669,-39.0298408373364
3.43333333333336,-39.2974924654537
3.44000000000003,-39.5625206648548
3.44666666666669,-39.8242512341904
3.45333333333336,-40.0820132490007
3.46000000000003,-40.3351410368219
3.46666666666669,-40.5829761822546
3.47333333333336,-40.8248695532091
3.48000000000003,-41.0601833391224
3.48666666666669,-41.2882930915775
3.49333333333336,-41.5085897574758
3.50000000000003,-41.7204816947027
3.50666666666669,-41.9233966600966
3.51333333333336,-42.1167837594813
3.52000000000003,-42.300115349552
3.52666666666669,-42.4728888815105
3.53333333333336,-42.6346286765342
3.54000000000003,-42.7848876234267
3.54666666666669,-42.92324878913
3.55333333333336,-43.0493269331894
3.56000000000003,-43.162769917731
3.56666666666669,-43.2632600050493
3.57333333333336,-43.3505150354943
3.58000000000003,-43.4242894789935
3.5866666666667,-43.4843753542385
3.59333333333336,-43.5306030103
3.60000000000003,-43.5628417662103
3.6066666666667,-43.5810004048541
3.61333333333336,-43.5850275183385
3.62000000000003,-43.5749117028624
3.6266666666667,-43.5506816019659
3.63333333333336,-43.5124057979128
3.64000000000003,-43.460192551829
3.6466666666667,-43.3941893940869
3.65333333333336,-43.3145825672852
3.66000000000003,-43.2215963250115
3.6666666666667,-43.1154920903967
3.67333333333336,-42.99656747926
3.68000000000003,-42.8651551934006
3.6866666666667,-42.7216217903132
3.69333333333336,-42.5663663362727
3.70000000000003,-42.3998189503641
3.7066666666667,-42.2224392475963
3.71333333333336,-42.0347146897511
3.72000000000003,-41.8371588530602
3.7266666666667,-41.6303096221842
3.73333333333337,-41.4147273202664
3.74000000000003,-41.1909927850686
3.7466666666667,-40.9597054013484
3.75333333333337,-40.7214810997094
3.76000000000003,-40.4769503321542
3.7666666666667,-40.2267560344826
3.77333333333337,-39.9715515855142
3.78000000000003,-39.7119987728724
3.7866666666667,-39.4487657747526
3.79333333333337,-39.1825251667062
3.80000000000003,-38.9139519620175
3.8066666666667,-38.6437216937338
3.81333333333337,-38.3725085458296
3.82000000000003,-38.1009835403653
3.8266666666667,-37.8298127868272
3.83333333333337,-37.5596557991352
3.84000000000003,-37.2911638850684
3.8466666666667,-37.0249786121119
3.85333333333337,-36.7617303529607
3.86000000000003,-36.5020369131586
3.8666666666667,-36.2465022425847
3.87333333333337,-35.9957152317638
